# Curva de traccion - Renfe Serie 333.3
# Formato: V(m/s) tab F(N) - Copiar y pegar en .eng/.inc
# Esfuerzo continuo: 296. kN a 27. km/h
# 
0.00   376704
0.28   372974
0.56   369318
0.83   365732
1.11   362215
1.39   358766
1.67   355381
1.94   352060
2.22   348800
2.50   345600
2.78   342458
4.17   327569
5.56   313920
6.94   301363
7.55   296172
8.33   268440
9.72   230091
11.11   201330
12.50   178960
13.89   161064
16.67   134220
19.44   115046
22.22   100665
25.00   89480
27.78   80532
30.56   73211
33.33   67110
36.11   61948
38.89   57523
41.67   53688
44.44   50332
